t	x	y	theta	xref	yref
0.030000	0.464725	0.000000	0.000000	1.591549	0.000000
0.120000	0.899028	0.000000	0.000000	1.591549	0.000000
0.210000	1.115513	0.012405	0.041361	1.587028	0.119886
0.300000	1.283154	0.048142	0.121214	1.573488	0.239091
0.420000	1.408381	0.120488	0.282309	1.551008	0.356938
0.510000	1.459428	0.191057	0.447236	1.519714	0.472756
0.600000	1.488127	0.266248	0.622167	1.479785	0.585888
0.720000	1.487450	0.389907	0.925568	1.479785	0.585888
0.810000	1.482965	0.460412	1.071081	1.431448	0.695691
0.900000	1.468845	0.533351	1.219105	1.374977	0.801541
1.020000	1.435403	0.634553	1.417688	1.310693	0.902837
1.110000	1.399650	0.715089	1.563427	1.238961	0.999002
1.200000	1.358018	0.793033	1.692626	1.160190	1.089491
1.320000	1.280189	0.908532	1.871716	1.160190	1.089491
1.410000	1.234980	0.972684	1.946537	1.074826	1.173789
1.500000	1.184763	1.035985	2.018435	0.983354	1.251417
1.620000	1.108150	1.118682	2.115543	0.886295	1.321934
1.710000	1.041325	1.180710	2.191027	0.784200	1.384940
1.800000	0.971636	1.238311	2.261707	0.677649	1.440077
1.920000	0.855141	1.317660	2.371526	0.677649	1.440077
2.010000	0.788959	1.360378	2.419352	0.567247	1.487031
2.100000	0.718736	1.400535	2.469127	0.453622	1.525535
2.220000	0.617011	1.448947	2.543407	0.337420	1.555371
2.310000	0.532098	1.481792	2.605754	0.219300	1.576368
2.400000	0.446251	1.509599	2.666426	0.099934	1.588409
2.520000	0.308936	1.540414	2.765547	0.099934	1.588409
2.610000	0.231849	1.555657	2.809461	-0.019999	1.591424
2.700000	0.151932	1.567061	2.856140	-0.139820	1.585396
2.820000	0.039700	1.574536	2.927322	-0.258845	1.570359
2.910000	-0.051236	1.573758	2.987918	-0.376400	1.546400
3.000000	-0.141198	1.567980	3.047268	-0.491816	1.513653
3.120000	-0.280119	1.546054	3.144972	-0.491816	1.513653
3.210000	-0.357344	1.531827	3.188376	-0.604437	1.472306
3.300000	-0.435798	1.512995	3.234646	-0.713624	1.422593
3.420000	-0.542850	1.478614	3.305406	-0.818756	1.364796
3.510000	-0.627085	1.444405	3.365753	-0.919236	1.299244
3.600000	-0.709258	1.405603	3.425304	-1.014492	1.226310
3.720000	-0.803957	1.341000	3.526845	-1.014492	1.226310
3.810000	-0.869649	1.304977	3.553507	-1.103984	1.146407
3.900000	-0.944559	1.254039	3.603951	-1.187202	1.059991
4.020000	-1.032251	1.185837	3.668817	-1.263675	0.967551
4.110000	-1.102968	1.137300	3.690561	-1.332967	0.869614
4.200000	-1.162440	1.073357	3.762481	-1.394685	0.766735
4.320000	-1.237589	0.981335	3.853067	-1.394685	0.766735
4.410000	-1.285984	0.915580	3.908546	-1.448479	0.659499
4.500000	-1.337805	0.846266	3.950877	-1.494041	0.548516
4.590000	-1.381728	0.767471	4.019762	-1.531115	0.434416
4.710000	-1.429516	0.649898	4.129355	-1.559488	0.317848
4.800000	-1.467212	0.558177	4.186792	-1.579000	0.199474
4.890000	-1.496591	0.481498	4.226508	-1.579000	0.199474
5.010000	-1.528873	0.372041	4.292040	-1.589539	0.079966
5.100000	-1.548022	0.279327	4.353340	-1.591047	-0.039996
5.190000	-1.562190	0.191525	4.407185	-1.583514	-0.159731
5.310000	-1.573418	0.061769	4.488331	-1.566983	-0.278558
5.400000	-1.575206	-0.036446	4.549016	-1.541548	-0.395802
5.490000	-1.572320	-0.148788	4.611094	-1.541548	-0.395802
5.610000	-1.560290	-0.253424	4.677383	-1.507354	-0.510798
5.700000	-1.543549	-0.336824	4.737189	-1.464594	-0.622891
5.790000	-1.523774	-0.416994	4.791902	-1.413513	-0.731444
5.910000	-1.494332	-0.514440	4.856149	-1.354400	-0.835841
6.000000	-1.455982	-0.596858	4.935383	-1.287591	-0.935489
6.090000	-1.418973	-0.678089	4.990879	-1.287591	-0.935489
6.210000	-1.365071	-0.784034	5.056339	-1.213465	-1.029822
6.300000	-1.320377	-0.856551	5.109949	-1.132444	-1.118302
6.390000	-1.270323	-0.930018	5.164151	-1.044989	-1.200428
6.480000	-1.218973	-0.996359	5.217102	-0.951595	-1.275733
6.600000	-1.137862	-1.088041	5.294580	-0.852795	-1.343790
6.690000	-1.072549	-1.150605	5.356126	-0.852795	-1.343790
6.780000	-1.000507	-1.213939	5.415101	-0.749149	-1.404210
6.900000	-0.913697	-1.281322	5.482203	-0.641246	-1.456652
6.990000	-0.839747	-1.331507	5.537787	-0.529699	-1.500816
7.080000	-0.767313	-1.378372	5.583088	-0.415142	-1.536453
7.200000	-0.657904	-1.432534	5.667479	-0.415142	-1.536453
7.290000	-0.574030	-1.466116	5.731653	-0.298227	-1.563359
7.380000	-0.476701	-1.497758	5.803979	-0.179617	-1.581382
7.500000	-0.373073	-1.528239	5.865403	-0.059986	-1.590419
7.590000	-0.287127	-1.547541	5.918215	0.059986	-1.590419
7.680000	-0.204870	-1.560765	5.970503	0.179617	-1.581382
7.800000	-0.083567	-1.572078	6.047708	0.179617	-1.581382
7.890000	0.006597	-1.572974	6.109310	0.298227	-1.563359
7.980000	0.102242	-1.569824	6.168416	0.386109	-1.544004
8.070000	0.180602	-1.564345	6.212930	0.501317	-1.510533
8.190000	0.300097	-1.549353	6.280573	0.613676	-1.468479
8.280000	0.398331	-1.528476	6.344980	0.722548	-1.418081
8.370000	0.472806	-1.508129	6.393079	0.827315	-1.359625
8.490000	0.580027	-1.457795	6.503380	0.827315	-1.359625
8.580000	0.658427	-1.428156	6.539571	0.927381	-1.293443
8.670000	0.730465	-1.393984	6.585279	1.022177	-1.219912
8.790000	0.830921	-1.330017	6.679661	1.111165	-1.139448
8.880000	0.912999	-1.273557	6.740530	1.193839	-1.052511
8.970000	0.978358	-1.229245	6.773868	1.269729	-0.959592
9.090000	1.074610	-1.143385	6.862395	1.269729	-0.959592
9.180000	1.137242	-1.084689	6.907408	1.338405	-0.861221
9.270000	1.191911	-1.026549	6.954462	1.399475	-0.757957
9.390000	1.264992	-0.937799	7.025226	1.452594	-0.650385
9.480000	1.319607	-0.853242	7.101120	1.497458	-0.539118
9.570000	1.363495	-0.786493	7.142738	1.533814	-0.424788
9.660000	1.406855	-0.702741	7.209216	1.533814	-0.424788
9.780000	1.457301	-0.591684	7.284652	1.561454	-0.308044
9.870000	1.486566	-0.517020	7.332821	1.580222	-0.189549
9.960000	1.513366	-0.435590	7.386007	1.590010	-0.069977
10.080000	1.541123	-0.307783	7.480537	1.590764	-0.049992
10.170000	1.557344	-0.229495	7.521684	1.582479	-0.169677
10.260000	1.566870	-0.187984	7.536019	1.582479	-0.169677
10.380000	1.573740	-0.191338	7.510538	1.565202	-0.288398
10.470000	1.573249	-0.231752	7.464692	1.539031	-0.405480
10.560000	1.567920	-0.287362	7.406949	1.504115	-0.520258
10.680000	1.547102	-0.365709	7.351168	1.460652	-0.632080
10.770000	1.533154	-0.416607	7.307724	1.408889	-0.740311
10.860000	1.507130	-0.489818	7.250014	1.408889	-0.740311
10.980000	1.467806	-0.587977	7.162044	1.349121	-0.844335
11.070000	1.437599	-0.655503	7.090355	1.281687	-0.943561
11.160000	1.400846	-0.728104	7.003981	1.206970	-1.037426
11.280000	1.332904	-0.836710	6.860260	1.125395	-1.125395
11.370000	1.290331	-0.902634	6.744626	1.037426	-1.206970
11.460000	1.232832	-0.976739	6.595188	1.037426	-1.206970
11.580000	1.143094	-1.068308	6.364277	0.943561	-1.281687
11.670000	1.079741	-1.125177	6.181997	0.844335	-1.349121
11.760000	1.020247	-1.182595	5.958698	0.740311	-1.408889
11.880000	0.916877	-1.258381	5.578953	0.632080	-1.460652
11.970000	0.854728	-1.304024	5.324585	0.520258	-1.504115
12.060000	0.775794	-1.350470	5.018981	0.520258	-1.504115
12.150000	0.689170	-1.392562	4.710627	0.405480	-1.539031
12.270000	0.576371	-1.442771	4.363797	0.288398	-1.565202
12.360000	0.504938	-1.475633	4.188067	0.169677	-1.582479
12.450000	0.414165	-1.502619	3.986239	0.049992	-1.590764
12.570000	0.311906	-1.534300	3.821803	-0.069977	-1.590010
12.660000	0.220843	-1.551079	3.686536	-0.069977	-1.590010
12.750000	0.125734	-1.562140	3.566918	-0.189549	-1.580222
12.870000	0.001758	-1.568363	3.436021	-0.308044	-1.561454
12.960000	-0.076746	-1.570253	3.371045	-0.424788	-1.533814
13.050000	-0.171676	-1.560984	3.277752	-0.539118	-1.497458
13.170000	-0.278976	-1.549347	3.201425	-0.650385	-1.452594
13.260000	-0.369305	-1.529560	3.124760	-0.650385	-1.452594
13.350000	-0.461439	-1.503847	3.052593	-0.731444	-1.413513
13.470000	-0.578973	-1.468086	2.982074	-0.835841	-1.354400
13.560000	-0.666308	-1.443161	2.947862	-0.935489	-1.287591
13.650000	-0.737602	-1.398660	2.858080	-1.029822	-1.213465
13.740000	-0.803440	-1.362073	2.806943	-1.118302	-1.132444
13.860000	-0.898481	-1.290861	2.701328	-1.118302	-1.132444
13.950000	-0.969870	-1.230443	2.626072	-1.200428	-1.044989
14.040000	-1.039311	-1.173836	2.580792	-1.275733	-0.951595
14.160000	-1.120056	-1.101804	2.526547	-1.343790	-0.852795
14.250000	-1.180234	-1.037554	2.472174	-1.404210	-0.749149
14.340000	-1.234051	-0.976632	2.428519	-1.456652	-0.641246
14.460000	-1.304198	-0.878827	2.346749	-1.456652	-0.641246
14.550000	-1.354307	-0.800258	2.288780	-1.500816	-0.529699
14.640000	-1.398628	-0.718594	2.227321	-1.536453	-0.415142
14.760000	-1.447067	-0.618458	2.159584	-1.563359	-0.298227
14.850000	-1.479374	-0.534924	2.099961	-1.581382	-0.179617
14.940000	-1.506956	-0.457124	2.053073	-1.590419	-0.059986
15.060000	-1.536165	-0.339239	1.969376	-1.590419	-0.059986
15.150000	-1.553831	-0.247103	1.910801	-1.590419	0.059986
15.240000	-1.564978	-0.154429	1.849214	-1.581382	0.179617
15.360000	-1.573669	-0.038359	1.779583	-1.563359	0.298227
15.450000	-1.572909	0.063808	1.713527	-1.536453	0.415142
15.540000	-1.566569	0.177704	1.646820	-1.500816	0.529699
15.660000	-1.551031	0.286814	1.576653	-1.500816	0.529699
15.750000	-1.533905	0.370923	1.523223	-1.456652	0.641246
15.840000	-1.510723	0.453598	1.464703	-1.404210	0.749149
15.930000	-1.486496	0.528005	1.414173	-1.343790	0.852795
16.050000	-1.428512	0.655881	1.307985	-1.275733	0.951595
16.140000	-1.378124	0.751416	1.237794	-1.200428	1.044989
16.230000	-1.340152	0.818081	1.195018	-1.200428	1.044989
16.350000	-1.281699	0.913163	1.138420	-1.118302	1.132444
16.440000	-1.231843	0.980575	1.086508	-1.029822	1.213465
16.530000	-1.178470	1.043779	1.031598	-0.935489	1.287591
16.650000	-1.091011	1.139863	0.960378	-0.835841	1.354400
16.740000	-1.022347	1.205901	0.902644	-0.731444	1.413513
16.830000	-0.960016	1.256029	0.848039	-0.731444	1.413513
16.950000	-0.870871	1.318087	0.772669	-0.622891	1.464594
17.040000	-0.795714	1.362973	0.710911	-0.510798	1.507354
17.130000	-0.719455	1.403669	0.652961	-0.395802	1.541548
17.250000	-0.601062	1.454861	0.561532	-0.278558	1.566983
17.340000	-0.502720	1.488464	0.490878	-0.159731	1.583514
17.430000	-0.427374	1.514913	0.453664	-0.159731	1.583514
17.520000	-0.347925	1.536455	0.406759	-0.039996	1.591047
17.640000	-0.230780	1.559481	0.332634	0.079966	1.589539
17.730000	-0.146558	1.568156	0.273228	0.199474	1.579000
17.820000	-0.055745	1.573628	0.214966	0.317848	1.559488
17.940000	0.071112	1.571923	0.131748	0.434416	1.531115
18.030000	0.154007	1.567846	0.086307	0.434416	1.531115
18.120000	0.238682	1.556997	0.031173	0.548516	1.494041
18.240000	0.350927	1.536026	-0.040402	0.659499	1.448479
18.330000	0.434623	1.513896	-0.097686	0.766735	1.394685
18.420000	0.520196	1.486735	-0.154832	0.869614	1.332967
18.540000	0.652531	1.428024	-0.259932	0.967551	1.263675
18.630000	0.720172	1.398533	-0.294140	0.967551	1.263675
18.720000	0.795136	1.358324	-0.345013	1.037426	1.206970
18.840000	0.885396	1.303729	-0.406573	1.125395	1.125395
18.930000	0.950642	1.257146	-0.458916	1.206970	1.037426
19.020000	1.015996	1.187257	-0.558403	1.281687	0.943561
19.140000	1.118300	1.098974	-0.620447	1.349121	0.844335
19.230000	1.169416	1.050292	-0.650984	1.349121	0.844335
19.320000	1.224123	0.988297	-0.700214	1.408889	0.740311
19.410000	1.278266	0.918712	-0.756231	1.460652	0.632080
19.530000	1.338940	0.828440	-0.827463	1.504115	0.520258
19.620000	1.383775	0.751782	-0.885227	1.539031	0.405480
19.710000	1.425645	0.659875	-0.963313	1.565202	0.288398
19.830000	1.471315	0.557783	-1.023779	1.565202	0.288398
19.920000	1.500139	0.476802	-1.076898	1.582479	0.169677
